#Parameters = {phi=0; pitch=315; r=300; theta=0; thk=200}
#"Frequency / PHz"	"SZmin(1),Zmax(1) [Real/Imaginary Part] [Re]"	"SZmin(1),Zmax(1) [Real/Imaginary Part] [Im]"
#-------------------------------------------------------------------------------------------------------------
0.33310273111111	-0.26149437477173	0.81661709322987
0.33532341598519	-0.22115119573197	0.82212022645375
0.33754410085926	-0.17942834710714	0.82526970239157
0.33976478573333	-0.13635195403704	0.82578801223435
0.34198547060741	-0.091973983428039	0.82335610306321
0.34420615548148	-0.046382774584342	0.81760749063515
0.34642684035556	0.00028265408102458	0.80812244999246
0.34864752522963	0.047813299765650	0.79442307119733
0.35086821010370	0.095904373078493	0.77597058122363
0.35308889497778	0.14412129156326	0.75216730868089
0.35530957985185	0.19185579148870	0.72236716571507
0.35753026472593	0.23827109452855	0.68590071373393
0.35975094960000	0.28223690003076	0.64212386253528
0.36197163447407	0.32225909281090	0.59050281510093
0.36419231934815	0.35641701727990	0.53075100104139
0.36641300422222	0.38233471088196	0.46303374605288
0.36863368909630	0.39723221027786	0.38824775145008
0.37085437397037	0.39812506036819	0.30835615735255
0.37307505884444	0.38225032928336	0.22670657301421
0.37529574371852	0.34776637430046	0.14818021479456
0.37751642859259	0.29466433561235	0.078948805177090
0.37973711346667	0.22563596089165	0.025634521298733
0.38195779834074	0.14645493494654	-0.0061274737733569
0.38417848321481	0.065445155469008	-0.013349562135814
0.38639916808889	-0.0080239937277261	0.0031040031372858
0.38861985296296	-0.065519174186233	0.038347524775454
0.39084053783704	-0.10121121063279	0.084367550908146
0.39306122271111	-0.11270314133314	0.13141962189654
0.39528190758519	-0.10110785590153	0.16920670405202
0.39750259245926	-0.070991312823037	0.18745130197812
0.39972327733333	-0.031024232865377	0.17608552369253
0.40194396220741	0.0038891746454683	0.12616811945676
0.40416464708148	0.0091628354552994	0.034166904384595
0.40638533195556	-0.049896315303551	-0.086305456298270
0.40860601682963	-0.20172671514822	-0.18763792676865
0.41082670170370	-0.42668038902884	-0.19599027318958
0.41304738657778	-0.64108842731958	-0.075161662336509
0.41526807145185	-0.76704081605915	0.12918421816064
0.41748875632593	-0.79379364769055	0.34363836021705
0.41970944120000	-0.75283243392529	0.52613798809313
0.42193012607407	-0.67688626435245	0.66733833733110
0.42415081094815	-0.58666214592264	0.77225310064278
0.42637149582222	-0.49287495915766	0.84886468748317
0.42859218069630	-0.40046456249596	0.90415402938874
0.43081286557037	-0.31145339427685	0.94337050558093
0.43303355044444	-0.22648447073648	0.97026584762696
0.43525423531852	-0.14558287403597	0.98748364672865
0.43747492019259	-0.068519676010548	0.99688786351295
0.43969560506667	0.0050178724542659	0.99980032150676
0.44191628994074	0.075348377942873	0.99715727041494
0.44413697481481	0.14276507955960	0.98965037561596
0.44635765968889	0.20751795564760	0.97773776057145
0.44857834456296	0.26981437189434	0.96175614639110
0.45079902943704	0.32981616303575	0.94192287991764
0.45301971431111	0.38764030034373	0.91836450336794
0.45524039918519	0.44335834568035	0.89113142296403
0.45746108405926	0.49699423679933	0.86020717481068
0.45968176893333	0.54851964545646	0.82551381790803
0.46190245380741	0.59784608862145	0.78691458688849
0.46412313868148	0.64481274507381	0.74421479153003
0.46634382355556	0.68916855241864	0.69716205998750
0.46856450842963	0.73054663141402	0.64544746077903
0.47078519330370	0.76842841320906	0.58870997103149
0.47300587817778	0.80209409912153	0.52654849078334
0.47522656305185	0.83055550296945	0.45854864873894
0.47744724792593	0.85246757195856	0.38433679846548
0.47966793280000	0.86601754613438	0.30368193050540
0.48188861767407	0.86879931626109	0.21667866763808
0.48410930254815	0.85770213977586	0.12406028370122
0.48632998742222	0.82888972215646	0.027702533472607
0.48855067229630	0.77803303687045	-0.068637898602923
0.49077135717037	0.70108767128077	-0.15841344538749
0.49299204204444	0.59599572043742	-0.23156727653063
0.49521272691852	0.46547392092520	-0.27491301558241
0.49743341179259	0.32007160683502	-0.27495763854728
0.49965409666667	0.17898750050731	-0.22370233938458
0.50187478154074	0.065646094969728	-0.12491904950126
0.50409546641481	-0.0013838919877235	0.0044800681786869
0.50631615128889	-0.016008159362196	0.14072004098703
0.50853683616296	0.015053631532453	0.26262446615296
0.51075752103704	0.078076988272620	0.35730782522706
0.51297820591111	0.15874506109344	0.41994660442229
0.51519889078519	0.24557616203328	0.44991925039405
0.51741957565926	0.32989719090576	0.44457722894431
0.51964026053333	0.39823468839612	0.37936675528546
0.52186094540741	0.022131423812489	0.0011029311877701
0.52408163028148	0.50937986712016	0.70469498603438
0.52630231515556	0.60953537945012	0.56155326884176
0.52852300002963	0.66931635791874	0.49031560692306
0.53074368490370	0.71805081450683	0.43260753848257
0.53296436977778	0.75930167639595	0.37846951011085
0.53518505465185	0.79427286591677	0.32520484293848
0.53740573952593	0.82364319764937	0.27196712416016
0.53962642440000	0.84789292233268	0.21850874444576
0.54184710927407	0.86739228072341	0.16480006919696
0.54406779414815	0.88243491010749	0.11089462303010
0.54628847902222	0.89325474094895	0.056877477706243
0.54850916389630	0.90003667474264	0.0028451769466024
0.55072984877037	0.90292429316135	-0.051101486597558
0.55295053364444	0.90202580496991	-0.10485921857823
0.55517121851852	0.89741877061545	-0.15832156989292
0.55739190339259	0.88915390311736	-0.21137719369314
0.55961258826667	0.87725814666636	-0.26390755548839
0.56183327314074	0.86173719130169	-0.31578428967510
0.56405395801481	0.84257756319487	-0.36686622842951
0.56627464288889	0.81974842571304	-0.41699604278857
0.56849532776296	0.79320323434018	-0.46599638558905
0.57071601263704	0.76288140975535	-0.51366539087266
0.57293669751111	0.72871023095407	-0.55977135493468
0.57515738238519	0.69060720907481	-0.60404639685376
0.57737806725926	0.64848328934975	-0.64617887136877
0.57959875213333	0.60224735244026	-0.68580428807291
0.58181943700741	0.55181265905675	-0.72249448590794
0.58292977944444	0.52499707503446	-0.73958456112840
0.58404012188148	0.49710611757247	-0.75574483426615
0.58626080675556	0.43808156979368	-0.78495930256604
0.58848149162963	0.37473870215141	-0.80943338909648
0.59070217650370	0.30714971306557	-0.82833516613332
0.59292286137778	0.23549651158894	-0.84068512236500
0.59514354625185	0.16012199431998	-0.84533608400360
0.59736423112593	0.081599877249099	-0.84095520899463
0.59958491600000	0.00082880403070657	-0.82601059609670
0.60180560087407	-0.080841387516607	-0.79876467469739
0.60402628574815	-0.16143841116230	-0.75727353883647
0.60624697062222	-0.23812589604152	-0.69938251414468
0.60846765549630	-0.30683913410965	-0.62268962112736
0.61068834037037	-0.36178309690566	-0.52444072101532
0.61290902524444	-0.39888546614908	-0.40261192626726
0.61512971011852	-0.36243536242099	-0.24708585383189
0.61735039499259	-0.067072729634610	-0.034232932757102
0.61957107986667	0.24565219980482	-0.047340141137438
0.62179176474074	0.27176571443300	-0.91545017045233
0.62401244961481	-0.45677220026452	-0.78367594193941
0.62623313448889	-0.58070663820214	-0.44797351526949
0.62845381936296	-0.55356696319685	-0.23803625306318
0.63067450423704	-0.48857075273497	-0.10217426981844
0.63289518911111	-0.41277667910603	-0.012974113513504
0.63511587398519	-0.33700916373469	0.043448543514413
0.63733655885926	-0.26722615515642	0.076180832960308
0.63955724373333	-0.20694055200202	0.092466044413950
0.64177792860741	-0.15803339483096	0.098717692821308
0.64399861348148	-0.12122562110624	0.10108778432793
0.64621929835556	-0.096361406894517	0.10626525053241
0.64843998322963	-0.082243878851859	0.12321670514153
0.65066066810370	-0.074645756608757	0.16766327112134
0.65288135297778	-0.054044842639314	0.27485244323147
0.65510203785185	0.10346363911887	0.51835604735780
0.65732272272593	0.86608188134344	0.44589737296207
0.65954340760000	0.72873766191104	-0.37185500018387
0.66176409247407	0.38460129718044	-0.46776158719478
0.66398477734815	0.22696252634274	-0.45054883084203
0.66620546222222	0.13805184675314	-0.43077867794839
#Parameters = {phi=0; pitch=315; r=279; theta=0; thk=200}
#"Frequency / PHz"	"SZmin(1),Zmax(1) (r=279) [Real/Imaginary Part] [Re]"	"SZmin(1),Zmax(1) (r=279) [Real/Imaginary Part] [Im]"
#-----------------------------------------------------------------------------------------------------------------------------
0.33310273111111	0.11457807317859	0.66886689122723
0.33532341598519	0.15735042801042	0.63785839509477
0.33754410085926	0.19786616828995	0.60045858819758
0.33976478573333	0.23488829670116	0.55625936647070
0.34198547060741	0.26685627222487	0.50503658617263
0.34420615548148	0.29185909947621	0.44689064564593
0.34642684035556	0.30765452507678	0.38243897440854
0.34864752522963	0.31177502052405	0.31305497492878
0.35086821010370	0.30177213932383	0.24112118762081
0.35308889497778	0.27564558356663	0.17022014914712
0.35530957985185	0.23246099079685	0.10513326681765
0.35753026472593	0.17306340949147	0.051488861335566
0.35975094960000	0.10065649444434	0.014953125693582
0.36197163447407	0.020920611901021	3.7454417849495e-05
0.36419231934815	-0.058586662469570	0.0088567948284713
0.36641300422222	-0.12970889342707	0.040338758672845
0.36863368909630	-0.18523278922618	0.090258449384512
0.37085437397037	-0.22010925484726	0.15207453899074
0.37307505884444	-0.23196227359274	0.21814441413917
0.37529574371852	-0.22089792537565	0.28077973255514
0.37751642859259	-0.18894946367789	0.33278453555708
0.37973711346667	-0.13960329797301	0.36739642868463
0.38195779834074	-0.077840881177310	0.37776148203536
0.38417848321481	-0.011195198369368	0.35625754019851
0.38639916808889	0.047435536229540	0.29448615606322
0.38861985296296	0.074495846155022	0.18644166554501
0.39084053783704	0.030534596673012	0.041152090862746
0.39306122271111	-0.12766274756224	-0.089755886059986
0.39528190758519	-0.38596379462115	-0.10356572777473
0.39750259245926	-0.62252664636134	0.058340675983030
0.39972327733333	-0.72234304154078	0.31625288609946
0.40194396220741	-0.69125755606973	0.55655799952794
0.40416464708148	-0.59069730729408	0.73410016724165
0.40638533195556	-0.46627007740472	0.85237437746169
0.40860601682963	-0.33956921895708	0.92676387580412
0.41082670170370	-0.21863932008356	0.97056620727261
0.41304738657778	-0.10568088711646	0.99291005247776
0.41526807145185	-0.00070709419855015	0.99966404868971
0.41748875632593	0.096949791154801	0.99454781636618
0.41970944120000	0.18806088395354	0.97992655494068
0.42193012607407	0.27329632467694	0.95731445547905
0.42415081094815	0.35316468478473	0.92768422810624
0.42637149582222	0.42800446829883	0.89165837640911
0.42859218069630	0.49799174795984	0.84963031865034
0.43081286557037	0.56315029284592	0.80184435355212
0.43303355044444	0.62335949764015	0.74845190200198
0.43525423531852	0.67835905766613	0.68955476179136
0.43747492019259	0.72775090004857	0.62524228950023
0.43969560506667	0.77099972365370	0.55562722054738
0.44191628994074	0.80743419618517	0.48088348904969
0.44413697481481	0.83625166424036	0.40128840452244
0.44635765968889	0.85653025256936	0.31727047723391
0.44857834456296	0.86725343643586	0.22946265876011
0.45079902943704	0.86735336263380	0.13875833387460
0.45301971431111	0.85577987395701	0.046363580551103
0.45524039918519	0.83160140021140	-0.046166412138620
0.45746108405926	0.79414001269406	-0.13692640893159
0.45968176893333	0.74313364269668	-0.22372407137285
0.46190245380741	0.67890070789549	-0.30424311075385
0.46412313868148	0.60245263603444	-0.37634623733973
0.46634382355556	0.51545319917824	-0.43855037353655
0.46856450842963	0.41984855789557	-0.49068094523364
0.47078519330370	0.31684966142442	-0.53464648036769
0.47300587817778	0.20461780982111	-0.57506529659883
0.47522656305185	0.073204104605871	-0.61858132745662
0.47744724792593	-0.10581383692672	-0.66654687218981
0.47966793280000	-0.38965921656815	-0.67981827533071
0.48188861767407	-0.78933402013106	-0.49222087792061
0.48410930254815	-0.99974293873810	0.022672812867147
0.48632998742222	-0.81633041641736	0.47902913545507
0.48855067229630	-0.53910338754173	0.68031227809236
0.49077135717037	-0.31810677658162	0.75101939899523
0.49299204204444	-0.15032990093466	0.77459124802886
0.49521272691852	-0.015338354364333	0.77944946629917
0.49743341179259	0.099887583140319	0.77406206089270
0.49965409666667	0.20221169110764	0.76093766398283
0.50187478154074	0.29511475834168	0.74093647677486
0.50409546641481	0.38035468459382	0.71453143149968
0.50631615128889	0.45882567779363	0.68215193126809
0.50853683616296	0.53099053100001	0.64425519054386
0.51075752103704	0.59709731642016	0.60132263355815
0.51297820591111	0.65728774375509	0.55384154906702
0.51519889078519	0.71165078244747	0.50228894979074
0.51741957565926	0.76024851397019	0.44712099940263
0.51964026053333	0.80312790780373	0.38876742220521
0.52186094540741	0.84032550590352	0.32762948057103
0.52408163028148	0.87186855602598	0.26408021103572
0.52630231515556	0.89777433772229	0.19846592497233
0.52852300002963	0.91804846761021	0.13110827740947
0.53074368490370	0.93268243715750	0.062306431680172
0.53296436977778	0.94165030358748	-0.0076610035674333
0.53518505465185	0.94490419103813	-0.078534503182329
0.53740573952593	0.94236796840625	-0.15007282502306
0.53962642440000	0.93392805114727	-0.22205309578232
0.54184710927407	0.91941957578974	-0.29427204784867
0.54406779414815	0.89860494163248	-0.36654874828576
0.54628847902222	0.87113934133215	-0.43872922222379
0.54850916389630	0.83651318281557	-0.51069325982757
0.55072984877037	0.79395138119722	-0.58236283796161
0.55295053364444	0.74222724118091	-0.65370792991047
0.55517121851852	0.67929481409634	-0.72473124398621
0.55739190339259	0.60150145602505	-0.79535648639168
0.55961258826667	0.50172836573188	-0.86489395823768
0.56183327314074	0.36449272877638	-0.92946482147904
0.56405395801481	0.15224132606599	-0.96747301176608
0.56627464288889	-0.20729387686646	-0.83970168524089
0.56849532776296	-0.21962761549393	-0.10658719965176
0.57071601263704	0.47955523799063	-0.22684203924548
0.57293669751111	0.50581025639350	-0.58395564269689
0.57515738238519	0.38849744226370	-0.76034557535589
0.57737806725926	0.24907869313507	-0.85382296135883
0.57959875213333	0.092670154416679	-0.90063419464246
0.58181943700741	-0.10677013774303	-0.89486804730482
0.58404012188148	-0.45501410884535	-0.51654890450536
0.58626080675556	-0.065365345926926	-0.97933127610338
0.58848149162963	-0.57826307996484	-0.74870011664011
0.59070217650370	-0.23785684261863	0.069820443805505
0.59292286137778	0.15950322139197	-0.51064502567086
0.59514354625185	-0.047829968496949	-0.70047063398492
0.59736423112593	-0.21609956951743	-0.71694662047184
0.59958491600000	-0.34585579961721	-0.67790118779601
0.60180560087407	-0.44850847350589	-0.61101184084582
0.60402628574815	-0.52872467149276	-0.52602697212504
0.60624697062222	-0.58792607262475	-0.42817198068445
0.60846765549630	-0.62639034866888	-0.32143178238516
0.61068834037037	-0.64449670604785	-0.20931344944309
0.61290902524444	-0.64371656560561	-0.094415929047979
0.61512971011852	-0.62776202554608	0.023699665890489
0.61735039499259	-0.60434616920199	0.15660079705149
0.61957107986667	-0.58040465595901	0.37262540557348
0.62179176474074	-0.016240620809752	0.99730750863991
0.62401244961481	0.27791488555178	-0.0085566499901074
0.62623313448889	0.11271620326346	-0.058329529965197
0.62845381936296	0.12522802642984	-0.12233200711648
0.63067450423704	0.14893599479799	-0.27475800705321
0.63289518911111	0.063304049309343	-0.53947849560452
0.63511587398519	-0.35037043168843	-0.77157640329529
0.63733655885926	-0.89013191282150	-0.45518962959306
0.63955724373333	-0.88517021485353	0.069537120364324
0.64177792860741	-0.65731422570978	0.31106855390820
0.64399861348148	-0.46303853713242	0.38410386894543
0.64621929835556	-0.32380349846091	0.39363096351897
0.64843998322963	-0.22412036856505	0.37987247956968
0.65066066810370	-0.15089801784150	0.35768911524815
0.65288135297778	-0.095699007755602	0.33297582693623
0.65510203785185	-0.053166301225580	0.30822751286604
0.65732272272593	-0.019793267111043	0.28452547763992
0.65954340760000	0.0068018542184485	0.26231275100046
0.66176409247407	0.028291100524950	0.24172535328921
0.66398477734815	0.045879890034373	0.22274608241163
0.66620546222222	0.060454951745895	0.20528127657142
#Parameters = {phi=0; pitch=315; r=180; theta=0; thk=200}
#"Frequency / PHz"	"SZmin(1),Zmax(1) (r=180) [Real/Imaginary Part] [Re]"	"SZmin(1),Zmax(1) (r=180) [Real/Imaginary Part] [Im]"
#-----------------------------------------------------------------------------------------------------------------------------
0.33310273111111	0.30596892731857	0.95196070395004
0.33532341598519	0.36423341383622	0.93130769364653
0.33754410085926	0.42336857969882	0.90595752975722
0.33976478573333	0.48362962807375	0.87462823296746
0.34198547060741	0.54511837070871	0.83494979479185
0.34420615548148	0.60861494693211	0.78411127437775
0.34642684035556	0.67475319352936	0.71578593995923
0.34864752522963	0.74277840459214	0.61571157628189
0.35086821010370	0.80041710136442	0.44679226391612
0.35308889497778	0.73824783366507	0.11507529009488
0.35530957985185	0.019587164785373	-0.016607739969325
0.35753026472593	0.025638435299778	0.74236400503506
0.35975094960000	0.37132780293582	0.84515927850953
0.36197163447407	0.55321085975371	0.79739022344452
0.36419231934815	0.66254865199482	0.73247066654698
0.36641300422222	0.73866004086594	0.66666068898515
0.36863368909630	0.79664649708580	0.60160215095767
0.37085437397037	0.84312233465468	0.53689116174940
0.37307505884444	0.88132704266772	0.47194287050140
0.37529574371852	0.91297493892852	0.40626702034461
0.37751642859259	0.93901120029636	0.33946997691517
0.37973711346667	0.95995052220660	0.27121280764026
0.38195779834074	0.97603525524295	0.20116702845606
0.38417848321481	0.98730376208699	0.12897289834934
0.38639916808889	0.99360406838444	0.054198051405517
0.38861985296296	0.99456218981921	-0.023706296469050
0.39084053783704	0.98949767910635	-0.10545239131195
0.39306122271111	0.97726102403382	-0.19196112659251
0.39528190758519	0.95594080430843	-0.28438339348578
0.39750259245926	0.92234485541325	-0.38402804224642
0.39972327733333	0.87071924833537	-0.49178042923473
0.40194396220741	0.79317424481583	-0.60794679125804
0.40416464708148	0.67406335779479	-0.72659122224887
0.40638533195556	0.49409547614252	-0.82892994646523
0.40860601682963	0.24169639290465	-0.86728148624896
0.41082670170370	-0.041646894494982	-0.76794485758466
0.41304738657778	-0.22871999983905	-0.51635697521680
0.41526807145185	-0.23140415994188	-0.24031910954048
0.41637841388889	-0.18207573275305	-0.13768429932474
0.41748875632593	-0.11939537774759	-0.065961776291282
0.41970944120000	0.0021241771012254	0.00076388301626809
0.42193012607407	0.083350240706603	0.0045306008011873
0.42415081094815	0.10258495697257	-0.015467864593500
0.42637149582222	-0.015318337576208	0.0065470905877619
0.42859218069630	0.69724851884232	0.68167682233868
0.43081286557037	0.54088404936906	-0.063033846476797
0.43303355044444	0.43969350652626	-0.14299026290705
0.43525423531852	0.38653727306176	-0.18336925815707
0.43747492019259	0.34405741335711	-0.21081713927154
0.43969560506667	0.30359331767022	-0.22942047998646
0.44191628994074	0.26253221545436	-0.23988429065279
0.44413697481481	0.22011983307796	-0.24186852197087
0.44635765968889	0.17640967662448	-0.23442535007216
0.44857834456296	0.13204271098093	-0.21604633644928
0.45079902943704	0.088387594957321	-0.18459878023483
0.45301971431111	0.047987391987422	-0.13726287853870
